30.02500 689.0
30.07500 739.0
30.12500 716.0
30.17500 678.0
30.22500 721.0
30.27500 657.0
30.32500 696.0
30.37500 617.0
30.42500 678.0
30.47500 693.0
30.52500 652.0
30.57500 656.0
30.62500 674.0
30.67500 690.0
30.72500 670.0
30.77500 625.0
30.82500 640.0
30.87500 639.0
30.92500 684.0
30.97500 649.0
31.02500 670.0
31.07500 623.0
31.12500 638.0
31.17500 670.0
31.22500 637.0
31.27500 661.0
31.32500 636.0
31.37500 595.0
31.42500 639.0
31.47500 600.0
31.52500 615.0
31.57500 586.0
31.62500 649.0
31.67500 623.0
31.72500 617.0
31.77500 637.0
31.82500 610.0
31.87500 623.0
31.92500 622.0
31.97500 596.0
32.02500 608.0
32.07500 570.0
32.12500 603.0
32.17500 576.0
32.22500 616.0
32.27500 602.0
32.32500 581.0
32.37500 600.0
32.42500 585.0
32.47500 571.0
32.52500 603.0
32.57500 580.0
32.62500 573.0
32.67500 602.0
32.72500 589.0
32.77500 607.0
32.82500 562.0
32.87500 562.0
32.92500 558.0
32.97500 569.0
33.02500 588.0
33.07500 637.0
33.12500 511.0
33.17500 547.0
33.22500 523.0
33.27500 592.0
33.32500 561.0
33.37500 514.0
33.42500 545.0
33.47500 565.0
33.52500 563.0
33.57500 530.0
33.62500 545.0
33.67500 503.0
33.72500 519.0
33.77500 535.0
33.82500 568.0
33.87500 541.0
33.92500 543.0
33.97500 520.0
34.02500 495.0
34.07500 551.0
34.12500 534.0
34.17500 532.0
34.22500 529.0
34.27500 502.0
34.32500 503.0
34.37500 538.0
34.42500 559.0
34.47500 553.0
34.52500 529.0
34.57500 521.0
34.62500 510.0
34.67500 531.0
34.72500 523.0
34.77500 561.0
34.82500 503.0
34.87500 541.0
34.92500 512.0
34.97500 555.0
35.02500 519.0
35.07500 513.0
35.12500 512.0
35.17500 529.0
35.22500 511.0
35.27500 475.0
35.32500 535.0
35.37500 531.0
35.42500 551.0
35.47500 521.0
35.52500 521.0
35.57500 553.0
35.62500 522.0
35.67500 522.0
35.72500 556.0
35.77500 555.0
35.82500 589.0
35.87500 573.0
35.92500 600.0
35.97500 545.0
36.02500 628.0
36.07500 634.0
36.12500 665.0
36.17500 674.0
36.22500 606.0
36.27500 666.0
36.32500 643.0
36.37500 695.0
36.42500 693.0
36.47500 669.0
36.52500 692.0
36.57500 626.0
36.62500 705.0
36.67500 700.0
36.72500 730.0
36.77500 693.0
36.82500 727.0
36.87500 696.0
36.92500 789.0
36.97500 767.0
37.02500 803.0
37.07500 811.0
37.12500 852.0
37.17500 835.0
37.22500 994.0
37.27500 938.0
37.32500 996.0
37.37500 1061.0
37.42500 1176.0
37.47500 1340.0
37.52500 1348.0
37.57500 1531.0
37.62500 1694.0
37.67500 1918.0
37.72500 2152.0
37.77500 2524.0
37.82500 2811.0
37.87500 3169.0
37.92500 3552.0
37.97500 4098.0
38.02500 4375.0
38.07500 4773.0
38.12500 4988.0
38.17500 5230.0
38.22500 5300.0
38.27500 5224.0
38.32500 5124.0
38.37500 4780.0
38.42500 4475.0
38.47500 3924.0
38.52500 3684.0
38.57500 3263.0
38.62500 2864.0
38.67500 2439.0
38.72500 2227.0
38.77500 2013.0
38.82500 1829.0
38.87500 1604.0
38.92500 1486.0
38.97500 1370.0
39.02500 1291.0
39.07500 1178.0
39.12500 1062.0
39.17500 969.0
39.22500 904.0
39.27500 903.0
39.32500 879.0
39.37500 840.0
39.42500 796.0
39.47500 772.0
39.52500 774.0
39.57500 727.0
39.62500 666.0
39.67500 707.0
39.72500 712.0
39.77500 634.0
39.82500 627.0
39.87500 664.0
39.92500 628.0
39.97500 602.0
40.02500 614.0
40.07500 584.0
40.12500 578.0
40.17500 611.0
40.22500 570.0
40.27500 529.0
40.32500 515.0
40.37500 539.0
40.42500 522.0
40.47500 537.0
40.52500 510.0
40.57500 499.0
40.62500 515.0
40.67500 522.0
40.72500 501.0
40.77500 493.0
40.82500 513.0
40.87500 466.0
40.92500 476.0
40.97500 533.0
41.02500 484.0
41.07500 506.0
41.12500 491.0
41.17500 528.0
41.22500 480.0
41.27500 482.0
41.32500 450.0
41.37500 509.0
41.42500 483.0
41.47500 508.0
41.52500 489.0
41.57500 490.0
41.62500 457.0
41.67500 496.0
41.72500 437.0
41.77500 465.0
41.82500 495.0
41.87500 460.0
41.92500 486.0
41.97500 460.0
42.02500 510.0
42.07500 512.0
42.12500 490.0
42.17500 490.0
42.22500 490.0
42.27500 484.0
42.32500 465.0
42.37500 487.0
42.42500 517.0
42.47500 533.0
42.52500 479.0
42.57500 474.0
42.62500 545.0
42.67500 515.0
42.72500 534.0
42.77500 514.0
42.82500 584.0
42.87500 588.0
42.92500 530.0
42.97500 589.0
43.02500 617.0
43.07500 651.0
43.12500 583.0
43.17500 615.0
43.22500 695.0
43.27500 679.0
43.32500 696.0
43.37500 758.0
43.42500 773.0
43.47500 829.0
43.52500 844.0
43.57500 890.0
43.62500 900.0
43.67500 931.0
43.72500 1060.0
43.77500 1077.0
43.82500 1093.0
43.87500 1169.0
43.92500 1248.0
43.97500 1323.0
44.02500 1412.0
44.07500 1445.0
44.12500 1527.0
44.17500 1574.0
44.22500 1660.0
44.27500 1633.0
44.32500 1740.0
44.37500 1763.0
44.42500 1726.0
44.47500 1705.0
44.52500 1600.0
44.57500 1527.0
44.62500 1517.0
44.67500 1395.0
44.72500 1382.0
44.77500 1319.0
44.82500 1256.0
44.87500 1133.0
44.92500 1038.0
44.97500 1024.0
45.02500 925.0
45.07500 873.0
45.12500 834.0
45.17500 800.0
45.22500 773.0
45.27500 687.0
45.32500 635.0
45.37500 579.0
45.42500 623.0
45.47500 591.0
45.52500 501.0
45.57500 550.0
45.62500 479.0
45.67500 508.0
45.72500 438.0
45.77500 479.0
45.82500 443.0
45.87500 447.0
45.92500 452.0
45.97500 395.0
46.02500 405.0
46.07500 402.0
46.12500 397.0
46.17500 366.0
46.22500 391.0
46.27500 369.0
46.32500 349.0
46.37500 346.0
46.42500 350.0
46.47500 324.0
46.52500 310.0
46.57500 360.0
46.62500 329.0
46.67500 332.0
46.72500 343.0
46.77500 322.0
46.82500 339.0
46.87500 328.0
46.92500 327.0
46.97500 297.0
47.02500 312.0
47.07500 286.0
47.12500 305.0
47.17500 322.0
47.22500 313.0
47.27500 309.0
47.32500 324.0
47.37500 314.0
47.42500 314.0
47.47500 351.0
47.52500 321.0
47.57500 300.0
47.62500 305.0
47.67500 327.0
47.72500 303.0
47.77500 294.0
47.82500 315.0
47.87500 317.0
47.92500 299.0
47.97500 324.0
48.02500 311.0
48.07500 263.0
48.12500 293.0
48.17500 320.0
48.22500 285.0
48.27500 284.0
48.32500 296.0
48.37500 267.0
48.42500 324.0
48.47500 288.0
48.52500 279.0
48.57500 278.0
48.62500 288.0
48.67500 287.0
48.72500 295.0
48.77500 282.0
48.82500 245.0
48.87500 278.0
48.92500 285.0
48.97500 281.0
49.02500 283.0
49.07500 316.0
49.12500 285.0
49.17500 305.0
49.22500 263.0
49.27500 258.0
49.32500 264.0
49.37500 302.0
49.42500 283.0
49.47500 297.0
49.52500 262.0
49.57500 296.0
49.62500 284.0
49.67500 273.0
49.72500 315.0
49.77500 292.0
49.82500 270.0
49.87500 280.0
49.92500 298.0
49.97500 294.0
50.02500 307.0
50.07500 327.0
50.12500 237.0
50.17500 288.0
50.22500 244.0
50.27500 297.0
50.32500 309.0
50.37500 305.0
50.42500 298.0
50.47500 306.0
50.52500 326.0
50.57500 317.0
50.62500 321.0
50.67500 311.0
50.72500 314.0
50.77500 296.0
50.82500 304.0
50.87500 300.0
50.92500 293.0
50.97500 320.0
51.02500 289.0
51.07500 312.0
51.12500 306.0
51.17500 314.0
51.22500 395.0
51.27500 846.0
51.32500 1722.0
51.37500 2637.0
51.42500 3541.0
51.47500 4278.0
51.52500 4744.0
51.57500 4378.0
51.62500 3422.0
51.67500 2629.0
51.72500 1687.0
51.77500 811.0
51.82500 370.0
51.87500 340.0
51.92500 351.0
51.97500 356.0
52.02500 346.0
52.07500 331.0
52.12500 339.0
52.17500 334.0
52.22500 372.0
52.27500 347.0
52.32500 345.0
52.37500 366.0
52.42500 363.0
52.47500 389.0
52.52500 403.0
52.57500 426.0
52.62500 387.0
52.67500 400.0
52.72500 416.0
52.77500 418.0
52.82500 430.0
52.87500 401.0
52.92500 424.0
52.97500 429.0
53.02500 424.0
53.07500 475.0
53.12500 467.0
53.17500 445.0
53.22500 489.0
53.27500 496.0
53.32500 474.0
53.37500 466.0
53.42500 569.0
53.47500 520.0
53.52500 593.0
53.57500 716.0
53.62500 819.0
53.67500 920.0
53.72500 1139.0
53.77500 1179.0
53.82500 1151.0
53.87500 1019.0
53.92500 888.0
53.97500 842.0
54.02500 742.0
54.07500 699.0
54.12500 645.0
54.17500 656.0
54.22500 630.0
54.27500 646.0
54.32500 668.0
54.37500 719.0
54.42500 714.0
54.47500 741.0
54.52500 745.0
54.57500 774.0
54.62500 837.0
54.67500 785.0
54.72500 784.0
54.77500 772.0
54.82500 898.0
54.87500 865.0
54.92500 834.0
54.97500 911.0
55.02500 850.0
55.07500 867.0
55.12500 906.0
55.17500 883.0
55.22500 890.0
55.27500 870.0
55.32500 913.0
55.37500 878.0
55.42500 893.0
55.47500 878.0
55.52500 873.0
55.57500 847.0
55.62500 828.0
55.67500 882.0
55.72500 859.0
55.77500 830.0
55.82500 827.0
55.87500 801.0
55.92500 787.0
55.97500 738.0
56.02500 736.0
56.07500 783.0
56.12500 726.0
56.17500 699.0
56.22500 728.0
56.27500 674.0
56.32500 666.0
56.37500 619.0
56.42500 646.0
56.47500 634.0
56.52500 585.0
56.57500 590.0
56.62500 602.0
56.67500 602.0
56.72500 530.0
56.77500 599.0
56.82500 526.0
56.87500 529.0
56.92500 496.0
56.97500 507.0
57.02500 486.0
57.07500 472.0
57.12500 477.0
57.17500 467.0
57.22500 418.0
57.27500 417.0
57.32500 445.0
57.37500 452.0
57.42500 393.0
57.47500 382.0
57.52500 408.0
57.57500 387.0
57.62500 386.0
57.67500 398.0
57.72500 364.0
57.77500 380.0
57.82500 412.0
57.87500 362.0
57.92500 360.0
57.97500 354.0
58.02500 335.0
58.07500 320.0
58.12500 335.0
58.17500 322.0
58.22500 344.0
58.27500 318.0
58.32500 312.0
58.37500 300.0
58.42500 349.0
58.47500 330.0
58.52500 305.0
58.57500 327.0
58.62500 278.0
58.67500 295.0
58.72500 265.0
58.77500 301.0
58.82500 260.0
58.87500 257.0
58.92500 306.0
58.97500 296.0
59.02500 272.0
59.07500 273.0
59.12500 254.0
59.17500 250.0
59.22500 289.0
59.27500 251.0
59.32500 247.0
59.37500 259.0
59.42500 240.0
59.47500 296.0
59.52500 240.0
59.57500 243.0
59.62500 270.0
59.67500 259.0
59.72500 264.0
59.77500 232.0
59.82500 258.0
59.87500 261.0
59.92500 231.0
59.97500 243.0
60.02500 247.0
60.07500 255.0
60.12500 231.0
60.17500 260.0
60.22500 221.0
60.27500 253.0
60.32500 244.0
60.37500 253.0
60.42500 241.0
60.47500 224.0
60.52500 247.0
60.57500 224.0
60.62500 226.0
60.67500 242.0
60.72500 219.0
60.77500 211.0
60.82500 236.0
60.87500 224.0
60.92500 213.0
60.97500 250.0
61.02500 230.0
61.07500 229.0
61.12500 264.0
61.17500 248.0
61.22500 248.0
61.27500 241.0
61.32500 255.0
61.37500 252.0
61.42500 231.0
61.47500 251.0
61.52500 236.0
61.57500 221.0
61.62500 257.0
61.67500 262.0
61.72500 242.0
61.77500 237.0
61.82500 276.0
61.87500 237.0
61.92500 242.0
61.97500 235.0
62.02500 251.0
62.07500 243.0
62.12500 213.0
62.17500 235.0
62.22500 258.0
62.27500 243.0
62.32500 261.0
62.37500 260.0
62.42500 253.0
62.47500 228.0
62.52500 234.0
62.57500 241.0
62.62500 247.0
62.67500 228.0
62.72500 239.0
62.77500 239.0
62.82500 251.0
62.87500 254.0
62.92500 265.0
62.97500 257.0
63.02500 264.0
63.07500 267.0
63.12500 334.0
63.17500 282.0
63.22500 284.0
63.27500 291.0
63.32500 338.0
63.37500 345.0
63.42500 300.0
63.47500 352.0
63.52500 329.0
63.57500 380.0
63.62500 413.0
63.67500 436.0
63.72500 395.0
63.77500 468.0
63.82500 481.0
63.87500 566.0
63.92500 551.0
63.97500 588.0
64.02500 678.0
64.07500 788.0
64.12500 815.0
64.17500 845.0
64.22500 1017.0
64.27500 1080.0
64.32500 1228.0
64.37500 1310.0
64.42500 1488.0
64.47500 1526.0
64.52500 1658.0
64.57500 1836.0
64.62500 1781.0
64.67500 1872.0
64.72500 1895.0
64.77500 1853.0
64.82500 1740.0
64.87500 1719.0
64.92500 1655.0
64.97500 1560.0
65.02500 1390.0
65.07500 1271.0
65.12500 1139.0
65.17500 1067.0
65.22500 896.0
65.27500 852.0
65.32500 838.0
65.37500 712.0
65.42500 662.0
65.47500 582.0
65.52500 520.0
65.57500 512.0
65.62500 481.0
65.67500 472.0
65.72500 445.0
65.77500 443.0
65.82500 410.0
65.87500 385.0
65.92500 372.0
65.97500 343.0
66.02500 353.0
66.07500 335.0
66.12500 331.0
66.17500 301.0
66.22500 297.0
66.27500 270.0
66.32500 287.0
66.37500 282.0
66.42500 295.0
66.47500 278.0
66.52500 271.0
66.57500 284.0
66.62500 260.0
66.67500 245.0
66.72500 238.0
66.77500 264.0
66.82500 227.0
66.87500 236.0
66.92500 238.0
66.97500 241.0
67.02500 233.0
67.07500 234.0
67.12500 243.0
67.17500 240.0
67.22500 228.0
67.27500 217.0
67.32500 230.0
67.37500 205.0
67.42500 224.0
67.47500 236.0
67.52500 194.0
67.57500 205.0
67.62500 205.0
67.67500 201.0
67.72500 190.0
67.77500 205.0
67.82500 206.0
67.87500 216.0
67.92500 204.0
67.97500 188.0
68.02500 199.0
68.07500 215.0
68.12500 206.0
68.17500 199.0
68.22500 182.0
68.27500 208.0
68.32500 204.0
68.37500 183.0
68.42500 193.0
68.47500 201.0
68.52500 186.0
68.57500 225.0
68.62500 168.0
68.67500 205.0
68.72500 194.0
68.77500 199.0
68.82500 172.0
68.87500 195.0
68.92500 214.0
68.97500 193.0
69.02500 184.0
69.07500 189.0
69.12500 193.0
69.17500 177.0
69.22500 181.0
69.27500 185.0
69.32500 166.0
69.37500 212.0
69.42500 191.0
69.47500 202.0
69.52500 198.0
69.57500 194.0
69.62500 184.0
69.67500 200.0
69.72500 178.0
69.77500 171.0
69.82500 163.0
69.87500 189.0
69.92500 154.0
69.97500 176.0
70.02500 157.0
70.07500 184.0
70.12500 170.0
70.17500 167.0
70.22500 182.0
70.27500 189.0
70.32500 186.0
70.37500 193.0
70.42500 188.0
70.47500 194.0
70.52500 195.0
70.57500 198.0
70.62500 163.0
70.67500 163.0
70.72500 162.0
70.77500 160.0
70.82500 183.0
70.87500 176.0
70.92500 171.0
70.97500 204.0
71.02500 170.0
71.07500 165.0
71.12500 169.0
71.17500 164.0
71.22500 156.0
71.27500 173.0
71.32500 209.0
71.37500 205.0
71.42500 212.0
71.47500 252.0
71.52500 278.0
71.57500 260.0
71.62500 262.0
71.67500 234.0
71.72500 245.0
71.77500 198.0
71.82500 168.0
71.87500 179.0
71.92500 196.0
71.97500 160.0
72.02500 183.0
72.07500 183.0
72.12500 164.0
72.17500 155.0
72.22500 160.0
72.27500 202.0
72.32500 165.0
72.37500 182.0
72.42500 157.0
72.47500 158.0
72.52500 190.0
72.57500 173.0
72.62500 191.0
72.67500 163.0
72.72500 174.0
72.77500 163.0
72.82500 169.0
72.87500 173.0
72.92500 192.0
72.97500 155.0
73.02500 168.0
73.07500 188.0
73.12500 202.0
73.17500 170.0
73.22500 176.0
73.27500 177.0
73.32500 172.0
73.37500 173.0
73.42500 190.0
73.47500 187.0
73.52500 202.0
73.57500 182.0
73.62500 203.0
73.67500 177.0
73.72500 183.0
73.77500 192.0
73.82500 185.0
73.87500 178.0
73.92500 164.0
73.97500 229.0
74.02500 200.0
74.07500 199.0
74.12500 180.0
74.17500 198.0
74.22500 194.0
74.27500 197.0
74.32500 198.0
74.37500 201.0
74.42500 206.0
74.47500 196.0
74.52500 197.0
74.57500 193.0
74.62500 193.0
74.67500 191.0
74.72500 192.0
74.77500 194.0
74.82500 174.0
74.87500 190.0
74.92500 205.0
74.97500 230.0
75.02500 215.0
75.07500 207.0
75.12500 224.0
75.17500 240.0
75.22500 219.0
75.27500 223.0
75.32500 196.0
75.37500 224.0
75.42500 206.0
75.47500 203.0
75.52500 230.0
75.57500 246.0
75.62500 227.0
75.67500 225.0
75.72500 228.0
75.77500 222.0
75.82500 234.0
75.87500 237.0
75.92500 267.0
75.97500 245.0
76.02500 258.0
76.07500 258.0
76.12500 263.0
76.17500 256.0
76.22500 305.0
76.27500 283.0
76.32500 309.0
76.37500 304.0
76.42500 306.0
76.47500 310.0
76.52500 374.0
76.57500 316.0
76.62500 396.0
76.67500 340.0
76.72500 384.0
76.77500 381.0
76.82500 451.0
76.87500 445.0
76.92500 463.0
76.97500 491.0
77.02500 515.0
77.07500 549.0
77.12500 582.0
77.17500 673.0
77.22500 651.0
77.27500 782.0
77.32500 792.0
77.37500 839.0
77.42500 911.0
77.47500 916.0
77.52500 956.0
77.57500 1036.0
77.62500 1035.0
77.67500 1003.0
77.72500 1001.0
77.77500 956.0
77.82500 959.0
77.87500 901.0
77.92500 902.0
77.97500 825.0
78.02500 821.0
78.07500 758.0
78.12500 689.0
78.17500 703.0
78.22500 642.0
78.27500 614.0
78.32500 566.0
78.37500 498.0
78.42500 488.0
78.47500 475.0
78.52500 415.0
78.57500 396.0
78.62500 397.0
78.67500 377.0
78.72500 404.0
78.77500 382.0
78.82500 360.0
78.87500 332.0
78.92500 369.0
78.97500 343.0
79.02500 320.0
79.07500 343.0
79.12500 324.0
79.17500 300.0
79.22500 330.0
79.27500 307.0
79.32500 309.0
79.37500 294.0
79.42500 267.0
79.47500 290.0
79.52500 270.0
79.57500 249.0
79.62500 269.0
79.67500 252.0
79.72500 263.0
79.77500 278.0
79.82500 244.0
79.87500 256.0
79.92500 284.0
79.97500 272.0
80.02500 272.0
80.07500 271.0
80.12500 266.0
80.17500 265.0
80.22500 300.0
80.27500 270.0
80.32500 266.0
80.37500 277.0
80.42500 280.0
80.47500 268.0
80.52500 284.0
80.57500 266.0
80.62500 282.0
80.67500 276.0
80.72500 283.0
80.77500 291.0
80.82500 302.0
80.87500 283.0
80.92500 305.0
80.97500 264.0
81.02500 308.0
81.07500 302.0
81.12500 330.0
81.17500 321.0
81.22500 342.0
81.27500 336.0
81.32500 342.0
81.37500 372.0
81.42500 395.0
81.47500 399.0
81.52500 387.0
81.57500 408.0
81.62500 395.0
81.67500 435.0
81.72500 416.0
81.77500 439.0
81.82500 448.0
81.87500 407.0
81.92500 427.0
81.97500 455.0
82.02500 399.0
82.07500 407.0
82.12500 395.0
82.17500 377.0
82.22500 381.0
82.27500 352.0
82.32500 362.0
82.37500 333.0
82.42500 328.0
82.47500 330.0
82.52500 289.0
82.57500 320.0
82.62500 304.0
82.67500 306.0
82.72500 309.0
82.77500 288.0
82.82500 242.0
82.87500 272.0
82.92500 293.0
82.97500 253.0
83.02500 253.0
83.07500 263.0
83.12500 274.0
83.17500 231.0
83.22500 267.0
83.27500 264.0
83.32500 285.0
83.37500 280.0
83.42500 254.0
83.47500 243.0
83.52500 250.0
83.57500 293.0
83.62500 248.0
83.67500 249.0
83.72500 258.0
83.77500 266.0
83.82500 238.0
83.87500 268.0
83.92500 245.0
83.97500 276.0
84.02500 251.0
84.07500 222.0
84.12500 249.0
84.17500 239.0
84.22500 222.0
84.27500 248.0
84.32500 238.0
84.37500 266.0
84.42500 244.0
84.47500 238.0
84.52500 253.0
84.57500 244.0
84.62500 244.0
84.67500 236.0
84.72500 249.0
84.77500 254.0
84.82500 251.0
84.87500 272.0
84.92500 261.0
84.97500 250.0
85.02500 236.0
85.07500 252.0
85.12500 272.0
85.17500 237.0
85.22500 254.0
85.27500 258.0
85.32500 265.0
85.37500 239.0
85.42500 267.0
85.47500 257.0
85.52500 246.0
85.57500 256.0
85.62500 230.0
85.67500 287.0
85.72500 236.0
85.77500 255.0
85.82500 257.0
85.87500 287.0
85.92500 238.0
85.97500 271.0
86.02500 256.0
86.07500 265.0
86.12500 261.0
86.17500 272.0
86.22500 278.0
86.27500 268.0
86.32500 263.0
86.37500 261.0
86.42500 287.0
86.47500 279.0
86.52500 280.0
86.57500 257.0
86.62500 288.0
86.67500 274.0
86.72500 250.0
86.77500 288.0
86.82500 258.0
86.87500 284.0
86.92500 272.0
86.97500 260.0
87.02500 262.0
87.07500 262.0
87.12500 291.0
87.17500 246.0
87.22500 301.0
87.27500 271.0
87.32500 262.0
87.37500 272.0
87.42500 276.0
87.47500 275.0
87.52500 279.0
87.57500 297.0
87.62500 269.0
87.67500 283.0
87.72500 272.0
87.77500 289.0
87.82500 272.0
87.87500 273.0
87.92500 286.0
87.97500 291.0
88.02500 280.0
88.07500 258.0
88.12500 260.0
88.17500 291.0
88.22500 290.0
88.27500 261.0
88.32500 276.0
88.37500 297.0
88.42500 272.0
88.47500 278.0
88.52500 286.0
88.57500 267.0
88.62500 269.0
88.67500 278.0
88.72500 285.0
88.77500 301.0
88.82500 295.0
88.87500 289.0
88.92500 299.0
88.97500 281.0
89.02500 288.0
89.07500 270.0
89.12500 300.0
89.17500 270.0
89.22500 310.0
89.27500 276.0
89.32500 284.0
89.37500 273.0
89.42500 305.0
89.47500 301.0
89.52500 311.0
89.57500 255.0
89.62500 286.0
89.67500 289.0
89.72500 253.0
89.77500 282.0
89.82500 260.0
89.87500 276.0
89.92500 281.0
89.97500 276.0
